# Temperature [K]	Pressure [MPa]	
91.000	            0.012164	
91.890	            0.013613	
92.780	            0.015199	
93.670	            0.016932	
94.560	            0.018820	
95.450	            0.020875	
96.340	            0.023107	
97.230	            0.025526	
98.120	            0.028143	
99.010	            0.030970	
99.900	            0.034019	
100.79	            0.037301	
101.68	            0.040829	
102.57	            0.044616	
103.46	            0.048674	
104.35	            0.053017	
105.24	            0.057659	
106.13	            0.062612	
107.02	            0.067891	
107.91	            0.073511	
108.80	            0.079486	
109.69	            0.085831	
110.58	            0.092560	
111.47	            0.099690	
112.36	            0.10723	    
113.25	            0.11521	    
114.14	            0.12363	    
115.03	            0.13252	    
115.92	            0.14189	    
116.81	            0.15175	    
117.70	            0.16213	    
118.59	            0.17303	    
119.48	            0.18448	    
120.37	            0.19649	    
121.26	            0.20909	    
122.15	            0.22228	    
123.04	            0.23609	    
123.93	            0.25053	    
124.82	            0.26562	    
125.71	            0.28139	    
126.60	            0.29783	    
127.49	            0.31499	    
128.38	            0.33286	    
129.27	            0.35148	    
130.16	            0.37086	    
131.05	            0.39102	    
131.94	            0.41197	    
132.83	            0.43374	    
133.72	            0.45634	    
134.61	            0.47980	    
135.50	            0.50413	    
136.39	            0.52935	    
137.28	            0.55548	    
138.17	            0.58254	    
139.06	            0.61055	    
139.95	            0.63952	    
140.84	            0.66949	    
141.73	            0.70046	    
142.62	            0.73246	    
143.51	            0.76550	    
144.40	            0.79961	    
145.29	            0.83481	    
146.18	            0.87111	    
147.07	            0.90854	    
147.96	            0.94711	    
148.85	            0.98685	    
149.74	            1.0278	    
150.63	            1.0699	    
151.52	            1.1133	    
152.41	            1.1579	    
153.30	            1.2038	    
154.19	            1.2509	    
155.08	            1.2994	    
155.97	            1.3492	    
156.86	            1.4004	    
157.75	            1.4529	    
158.64	            1.5069	    
159.53	            1.5623	    
160.42	            1.6191	    
161.31	            1.6773	    
162.20	            1.7371	    
163.09	            1.7984	    
163.98	            1.8612	    
164.87	            1.9256	    
165.76	            1.9915	    
166.65	            2.0591	    
167.54	            2.1283	    
168.43	            2.1992	    
169.32	            2.2718	    
170.21	            2.3460	    
171.10	            2.4221	    
171.99	            2.4998	    
172.88	            2.5794	    
173.77	            2.6609	    
174.66	            2.7442	    
175.55	            2.8294	    
176.44	            2.9165	    
177.33	            3.0056	    
178.22	            3.0967	    
179.11	            3.1899	    
180.00	            3.2852	    
180.89	            3.3826	    
181.78	            3.4822	    
182.67	            3.5840	    
183.56	            3.6881	    
184.45	            3.7947	    
185.34	            3.9036	    
186.23	            4.0151	    
187.12	            4.1292	    
188.01	            4.2461	    
188.90	            4.3659	    
189.79	            4.4890	    
190.68	            4.6160	    
191.57	            4.7455	    
192.46	            4.8754	    
193.35	            5.0056	    
194.24	            5.1361	    
195.13	            5.2670	    
196.02	            5.3982	    
196.91	            5.5296	    
197.80	            5.6613	    
198.69	            5.7932	    
199.58	            5.9253	    
200.47	            6.0576	    
201.36	            6.1901	    
202.25	            6.3227	    
203.14	            6.4555	    
204.03	            6.5884	    
204.92	            6.7215	    
205.81	            6.8547	    
206.70	            6.9879	    
207.59	            7.1213	    
208.48	            7.2548	    
209.37	            7.3884	    
210.26	            7.5220	    
211.15	            7.6558	    
212.04	            7.7896	    
212.93	            7.9235	    
213.82	            8.0574	    
214.71	            8.1914	    
215.60	            8.3255	    
216.49	            8.4596	    
217.38	            8.5938	    
218.27	            8.7280	    
219.16	            8.8623	    
220.05	            8.9966	    
220.94	            9.1309	    
221.83	            9.2653	    
222.72	            9.3997	    
223.61	            9.5342	    
224.50	            9.6687	    
225.39	            9.8032	    
226.28	            9.9377	    
227.17	            10.072	    
228.06	            10.207	    
228.95	            10.342	    
229.84	            10.476	    
230.73	            10.611	    
231.62	            10.746	    
232.51	            10.880	    
233.40	            11.015	    
234.29	            11.150	    
235.18	            11.284	    
236.07	            11.419	    
236.96	            11.554	    
237.85	            11.689	    
238.74	            11.823	    
239.63	            11.958	    
240.52	            12.093	    
241.41	            12.228	    
242.30	            12.363	    
243.19	            12.497	    
244.08	            12.632	    
244.97	            12.767	    
245.86	            12.902	    
246.75	            13.037	    
247.64	            13.172	    
248.53	            13.306	    
249.42	            13.441	    
250.31	            13.576	    
251.20	            13.711	    
252.09	            13.846	    
252.98	            13.980	    
253.87	            14.115	    
254.76	            14.250	    
255.65	            14.385	    
256.54	            14.519	    
257.43	            14.654	    
258.32	            14.789	    
259.21	            14.924	    
260.10	            15.058	    
260.99	            15.193	    
261.88	            15.328	    
262.77	            15.463	    
263.66	            15.597	    
264.55	            15.732	    
265.44	            15.867	    
266.33	            16.001	    
267.22	            16.136	    
268.11	            16.270	    
269.00	            16.405	    
269.89	            16.540	    
270.78	            16.674	    
271.67	            16.809	    
272.56	            16.943	    
273.45	            17.078	    
274.34	            17.212	    
275.23	            17.347	    
276.12	            17.481	    
277.01	            17.616	    
277.90	            17.750	    
278.79	            17.885	    
279.68	            18.019	    
280.57	            18.153	    
281.46	            18.288	    
282.35	            18.422	    
283.24	            18.556	    
284.13	            18.691	    
285.02	            18.825	    
285.91	            18.959	    
286.80	            19.093	    
287.69	            19.228	    
288.58	            19.362	    
289.47	            19.496	    
290.36	            19.630	    
291.25	            19.764	    
292.14	            19.898	    
293.03	            20.032	    
293.92	            20.166	    
294.81	            20.300	    
295.70	            20.434	    
296.59	            20.568	    
297.48	            20.702	    
298.37	            20.836	    
299.26	            20.970	    
300.15	            21.104	    
301.04	            21.238	    
301.93	            21.372	    
302.82	            21.506	    
303.71	            21.639	    
304.60	            21.773	    
305.49	            21.907	    
306.38	            22.041	    
307.27	            22.174	    
308.16	            22.308	    
309.05	            22.442	    
309.94	            22.575	    
310.83	            22.709	    
311.72	            22.842	    
312.61	            22.976	    
313.50	            23.109	    
314.39	            23.243	    
315.28	            23.376	    
316.17	            23.510	    
317.06	            23.643	    
317.95	            23.777	    
318.84	            23.910	    
319.73	            24.043	    
320.62	            24.177	    
321.51	            24.310	    
322.40	            24.443	    
323.29	            24.576	    
324.18	            24.710	    
325.07	            24.843	    
325.96	            24.976	    
326.85	            25.109	    
327.74	            25.242	    
328.63	            25.375	    
329.52	            25.508	    
330.41	            25.641	    
331.30	            25.774	    
332.19	            25.907	    
333.08	            26.040	    
333.97	            26.173	    
334.86	            26.306	    
335.75	            26.439	    
336.64	            26.571	    
337.53	            26.704	    
338.42	            26.837	    
339.31	            26.970	    
340.20	            27.102	    
341.09	            27.235	    
341.98	            27.368	    
342.87	            27.500	    
343.76	            27.633	    
344.65	            27.766	    
345.54	            27.898	    
346.43	            28.031	    
347.32	            28.163	    
348.21	            28.296	    
349.10	            28.428	    
349.99	            28.560	    
350.88	            28.693	    
351.77	            28.825	    
352.66	            28.957	    
353.55	            29.090	    
354.44	            29.222	    
355.33	            29.354	    
356.22	            29.487	    
357.11	            29.619	    
358.00	            29.751	    
358.89	            29.883	    
359.78	            30.015	    
360.67	            30.147	    
361.56	            30.279	    
362.45	            30.411	    
363.34	            30.543	    
364.23	            30.675	    
365.12	            30.807	    
366.01	            30.939	    
366.90	            31.071	    
367.79	            31.203	    
368.68	            31.335	    
369.57	            31.467	    
370.46	            31.598	    
371.35	            31.730	    
372.24	            31.862	    
373.13	            31.993	    
374.02	            32.125	    
374.91	            32.257	    
375.80	            32.388	    
376.69	            32.520	    
377.58	            32.652	    
378.47	            32.783	    
379.36	            32.915	    
380.25	            33.046	    
381.14	            33.178	    
382.03	            33.309	    
382.92	            33.440	    
383.81	            33.572	    
384.70	            33.703	    
385.59	            33.834	    
386.48	            33.966	    
387.37	            34.097	    
388.26	            34.228	    
389.15	            34.359	    
390.04	            34.491	    
390.93	            34.622	    
391.82	            34.753	    
392.71	            34.884	    
393.60	            35.015	    
394.49	            35.146	    
395.38	            35.277	    
396.27	            35.408	    
397.16	            35.539	    
398.05	            35.670	    
398.94	            35.801	    
399.83	            35.932	    
400.72	            36.063	    
401.61	            36.194	    
402.50	            36.325	    
403.39	            36.455	    
404.28	            36.586	    
405.17	            36.717	    
406.06	            36.848	    
406.95	            36.978	    
407.84	            37.109	    
408.73	            37.240	    
409.62	            37.370	    
410.51	            37.501	    
411.40	            37.631	    
412.29	            37.762	    
413.18	            37.892	    
414.07	            38.023	    
414.96	            38.153	    
415.85	            38.284	    
416.74	            38.414	    
417.63	            38.545	    
418.52	            38.675	    
419.41	            38.805	    
420.30	            38.936	    
421.19	            39.066	    
422.08	            39.196	    
422.97	            39.326	    
423.86	            39.456	    
424.75	            39.587	    
425.64	            39.717	    
426.53	            39.847	    
427.42	            39.977	    
428.31	            40.107	    
429.20	            40.237	    
430.09	            40.367	    
430.98	            40.497	    
431.87	            40.627	    
432.76	            40.757	    
433.65	            40.887	    
434.54	            41.017	    
435.43	            41.147	    
436.32	            41.277	    
437.21	            41.407	    
438.10	            41.536	    
438.99	            41.666	    
439.88	            41.796	    
440.77	            41.926	    
441.66	            42.055	    
442.55	            42.185	    
443.44	            42.315	    
444.33	            42.444	    
445.22	            42.574	    
446.11	            42.703	    
447.00	            42.833	    
447.89	            42.963	    
448.78	            43.092	    
449.67	            43.222	    
450.56	            43.351	    
451.45	            43.480	    
452.34	            43.610	    
453.23	            43.739	    
454.12	            43.869	    
455.01	            43.998	    
455.90	            44.127	    
456.79	            44.257	    
457.68	            44.386	    
458.57	            44.515	    
459.46	            44.644	    
460.35	            44.774	    
461.24	            44.903	    
462.13	            45.032	    
463.02	            45.161	    
463.91	            45.290	    
464.80	            45.419	    
465.69	            45.548	    
466.58	            45.677	    
467.47	            45.806	    
468.36	            45.935	    
469.25	            46.064	    
470.14	            46.193	    
471.03	            46.322	    
471.92	            46.451	    
472.81	            46.580	    
473.70	            46.709	    
474.59	            46.838	    
475.48	            46.966	    
476.37	            47.095	    
477.26	            47.224	    
478.15	            47.353	    
479.04	            47.481	    
479.93	            47.610	    
480.82	            47.739	    
481.71	            47.867	    
482.60	            47.996	    
483.49	            48.124	    
484.38	            48.253	    
485.27	            48.382	    
486.16	            48.510	    
487.05	            48.639	    
487.94	            48.767	    
488.83	            48.896	    
489.72	            49.024	    
490.61	            49.152	    
491.50	            49.281	    
492.39	            49.409	    
493.28	            49.538	    
494.17	            49.666	    
495.06	            49.794	    
495.95	            49.922	    
496.84	            50.051	    
497.73	            50.179	    
498.62	            50.307	    
499.51	            50.435	    
500.40	            50.564	    
501.29	            50.692	    
502.18	            50.820	    
503.07	            50.948	    
503.96	            51.076	    
504.85	            51.204	    
505.74	            51.332	    
506.63	            51.460	    
507.52	            51.588	    
508.41	            51.716	    
509.30	            51.844	    
510.19	            51.972	    
511.08	            52.100	    
511.97	            52.228	    
512.86	            52.356	    
513.75	            52.484	    
514.64	            52.611	    
515.53	            52.739	    
516.42	            52.867	    
517.31	            52.995	    
518.20	            53.122	    
519.09	            53.250	    
519.98	            53.378	    
520.87	            53.506	    
521.76	            53.633	    
522.65	            53.761	    
523.54	            53.888	    
524.43	            54.016	    
525.32	            54.144	    
526.21	            54.271	    
527.10	            54.399	    
527.99	            54.526	    
528.88	            54.654	    
529.77	            54.781	    
530.66	            54.909	    
531.55	            55.036	    
532.44	            55.163	    
533.33	            55.291	    
534.22	            55.418	    
535.11	            55.546	    
536.00	            55.673	    
536.89	            55.800	    
537.78	            55.928	    
538.67	            56.055	    
539.56	            56.182	    
540.45	            56.309	    
541.34	            56.436	    
542.23	            56.564	    
543.12	            56.691	    
544.01	            56.818	    
544.90	            56.945	    
545.79	            57.072	    
546.68	            57.199	    
547.57	            57.326	    
548.46	            57.453	    
549.35	            57.580	    
550.24	            57.707	    
551.13	            57.834	    
552.02	            57.961	    
552.91	            58.088	    
553.80	            58.215	    
554.69	            58.342	    
555.58	            58.469	    
556.47	            58.596	    
557.36	            58.723	    
558.25	            58.850	    
559.14	            58.976	    
560.03	            59.103	    
560.92	            59.230	    
561.81	            59.357	    
562.70	            59.483	    
563.59	            59.610	    
564.48	            59.737	    
565.37	            59.863	    
566.26	            59.990	    
567.15	            60.117	    
568.04	            60.243	    
568.93	            60.370	    
569.82	            60.497	    
570.71	            60.623	    
571.60	            60.750	    
572.49	            60.876	    
573.38	            61.003	    
574.27	            61.129	    
575.16	            61.256	    
576.05	            61.382	    
576.94	            61.508	    
577.83	            61.635	    
578.72	            61.761	    
579.61	            61.888	    
580.50	            62.014	    
581.39	            62.140	    
582.28	            62.267	    
583.17	            62.393	    
584.06	            62.519	    
584.95	            62.645	    
585.84	            62.772	    
586.73	            62.898	    
587.62	            63.024	    
588.51	            63.150	    
589.40	            63.276	    
590.29	            63.403	    
591.18	            63.529	    
592.07	            63.655	    
592.96	            63.781	    
593.85	            63.907	    
594.74	            64.033	    
595.63	            64.159	    
596.52	            64.285	    
597.41	            64.411	    
598.30	            64.537	    
599.19	            64.663	    
600.08	            64.789	    
600.97	            64.915	    
601.86	            65.041	    
602.75	            65.167	    
603.64	            65.293	    
604.53	            65.419	    
605.42	            65.544	    
606.31	            65.670	    
607.20	            65.796	    
608.09	            65.922	    
608.98	            66.048	    
609.87	            66.173	    
610.76	            66.299	    
611.65	            66.425	    
612.54	            66.550	    
613.43	            66.676	    
614.32	            66.802	    
615.21	            66.927	    
616.10	            67.053	    
616.99	            67.179	    
617.88	            67.304	    
618.77	            67.430	    
619.66	            67.555	    
620.55	            67.681	    
621.44	            67.807	    
622.33	            67.932	    
623.22	            68.058	    
624.11	            68.183	    
625.00	            68.308	    
